Bruker BioSpin GmbH: the minispec
DataType=5
DataLimits=0.03794,7.02394,500
DataUnit=Time/ms,Intensity/%
c:\nmr relaxation\applications\fid.app
07.02.2019 19:31:37

0.03794	93.87057387
0.05194	93.40659341
0.06594	92.72283272
0.07994	92.6984127
0.09394	92.11233211
0.10794	91.89255189
0.12194	91.25763126
0.13594	90.62271062
0.14994	90.10989011
0.16394	89.4993895
0.17794	88.81562882
0.19194	87.91208791
0.20594	86.98412698
0.21994	86.34920635
0.23394	85.15262515
0.24794	84.34676435
0.26194	83.2967033
0.27594	82.46642247
0.28994	81.24542125
0.30394	80.29304029
0.31794	79.07203907
0.33194	77.94871795
0.34594	76.82539683
0.35994	75.77533578
0.37394	74.50549451
0.38794	73.13797314
0.40194	71.96581197
0.41594	70.89133089
0.42994	69.62148962
0.44394	67.96092796
0.45794	66.78876679
0.47194	65.42124542
0.48594	64.24908425
0.49994	62.88156288
0.51394	61.66056166
0.52794	60.26862027
0.54194	59.07203907
0.55594	57.82661783
0.56994	56.7032967
0.58394	55.53113553
0.59794	54.28571429
0.61194	52.99145299
0.62594	51.77045177
0.63994	50.84249084
0.65394	49.57264957
0.66794	48.42490842
0.68194	47.37484737
0.69594	46.52014652
0.70994	45.37240537
0.72394	44.1025641
0.73794	43.05250305
0.75194	42.2954823
0.76594	41.05006105
0.77994	40.34188034
0.79394	39.19413919
0.80794	38.55921856
0.82194	37.58241758
0.83594	36.84981685
0.84994	36.04395604
0.86394	35.06715507
0.87794	34.28571429
0.89194	33.57753358
0.90594	32.5030525
0.91994	31.94139194
0.93394	31.13553114
0.94794	30.52503053
0.96194	29.71916972
0.97594	29.25518926
0.98994	28.42490842
1.00394	27.59462759
1.01794	27.17948718
1.03194	26.44688645
1.04594	25.78754579
1.05994	25.05494505
1.07394	24.32234432
1.08794	23.73626374
1.10194	23.05250305
1.11594	22.53968254
1.12994	21.97802198
1.14394	21.46520147
1.15794	20.75702076
1.17194	20.02442002
1.18594	19.38949939
1.19994	18.8034188
1.21394	18.38827839
1.22794	17.68009768
1.24194	17.19169719
1.25594	16.60561661
1.26994	16.11721612
1.28394	15.53113553
1.29794	15.06715507
1.31194	14.48107448
1.32594	14.01709402
1.33994	13.5042735
1.35394	12.7960928
1.36794	12.35653236
1.38194	11.96581197
1.39594	11.52625153
1.40994	10.96459096
1.42394	10.57387057
1.43794	9.938949939
1.45194	9.719169719
1.46594	9.230769231
1.47994	8.937728938
1.49394	8.522588523
1.50794	8.278388278
1.52194	7.765567766
1.53594	7.277167277
1.54994	7.130647131
1.56394	6.666666667
1.57794	6.52014652
1.59194	6.129426129
1.60594	5.958485958
1.61994	5.714285714
1.63394	5.518925519
1.64794	5.25030525
1.66194	5.103785104
1.67594	5.054945055
1.68994	4.932844933
1.70394	4.63980464
1.71794	4.371184371
1.73194	4.224664225
1.74594	4.053724054
1.75994	3.882783883
1.77394	4.053724054
1.78794	3.98046398
1.80194	3.614163614
1.81594	3.565323565
1.82994	3.663003663
1.84394	3.540903541
1.85794	3.36996337
1.87194	3.36996337
1.88594	3.174603175
1.89994	3.223443223
1.91394	3.174603175
1.92794	2.979242979
1.94194	2.905982906
1.95594	2.857142857
1.96994	2.808302808
1.98394	2.637362637
1.99794	2.710622711
2.01194	2.53968254
2.02594	2.832722833
2.03994	2.393162393
2.05394	2.442002442
2.06794	2.31990232
2.08194	2.124542125
2.09594	2.173382173
2.10994	2.124542125
2.12394	1.904761905
2.13794	2.002442002
2.15194	1.684981685
2.16594	1.733821734
2.17994	1.48962149
2.19394	1.514041514
2.20794	1.343101343
2.22194	1.367521368
2.23594	1.123321123
2.24994	1.221001221
2.26394	1.001221001
2.27794	1.123321123
2.29194	1.025641026
2.30594	1.025641026
2.31994	0.6349206349
2.33394	0.8791208791
2.34794	0.8302808303
2.36194	0.3907203907
2.37594	0.6349206349
2.38994	0.5372405372
2.40394	0.3174603175
2.41794	0.3663003663
2.43194	0.5372405372
2.44594	0.293040293
2.45994	0.09768009768
2.47394	0.1465201465
2.48794	0.09768009768
2.50194	0.1221001221
2.51594	0.04884004884
2.52994	0.1465201465
2.54394	0.2686202686
2.55794	0.2686202686
2.57194	0.293040293
2.58594	0.3907203907
2.59994	0.3418803419
2.61394	0.4884004884
2.62794	0.5128205128
2.64194	0.5372405372
2.65594	0.5860805861
2.66994	0.757020757
2.68394	0.7081807082
2.69794	0.8058608059
2.71194	0.9523809524
2.72594	0.9035409035
2.73994	0.9523809524
2.75394	1.025641026
2.76794	0.9768009768
2.78194	1.074481074
2.79594	1.196581197
2.80994	1.318681319
2.82394	1.098901099
2.83794	1.538461538
2.85194	1.294261294
2.86594	1.514041514
2.87994	1.538461538
2.89394	1.416361416
2.90794	1.440781441
2.92194	1.48962149
2.93594	1.587301587
2.94994	1.733821734
2.96394	1.611721612
2.97794	1.758241758
2.99194	1.855921856
3.00594	1.660561661
3.01994	1.562881563
3.03394	1.587301587
3.04794	1.904761905
3.06194	1.831501832
3.07594	1.831501832
3.08994	1.953601954
3.10394	1.684981685
3.11794	2.026862027
3.13194	1.855921856
3.14594	1.782661783
3.15994	1.733821734
3.17394	2.026862027
3.18794	1.831501832
3.20194	1.660561661
3.21594	1.855921856
3.22994	1.587301587
3.24394	1.782661783
3.25794	1.733821734
3.27194	1.831501832
3.28594	1.709401709
3.29994	1.611721612
3.31394	1.733821734
3.32794	1.88034188
3.34194	1.538461538
3.35594	1.684981685
3.36994	1.807081807
3.38394	1.684981685
3.39794	1.562881563
3.41194	1.709401709
3.42594	1.440781441
3.43994	1.465201465
3.45394	1.440781441
3.46794	1.343101343
3.48194	1.440781441
3.49594	1.294261294
3.50994	1.48962149
3.52394	1.48962149
3.53794	1.48962149
3.55194	1.343101343
3.56594	1.294261294
3.57994	1.245421245
3.59394	1.26984127
3.60794	1.26984127
3.62194	0.9523809524
3.63594	1.294261294
3.64994	1.05006105
3.66394	1.098901099
3.67794	1.098901099
3.69194	1.098901099
3.70594	1.172161172
3.71994	1.001221001
3.73394	1.26984127
3.74794	0.927960928
3.76194	0.9523809524
3.77594	0.8547008547
3.78994	0.8058608059
3.80394	0.7814407814
3.81794	0.8302808303
3.83194	0.7081807082
3.84594	0.8791208791
3.85994	0.7081807082
3.87394	0.7814407814
3.88794	0.6837606838
3.90194	0.5616605617
3.91594	0.7326007326
3.92994	0.8791208791
3.94394	0.7814407814
3.95794	0.5616605617
3.97194	0.4151404151
3.98594	0.6105006105
3.99994	0.4395604396
4.01394	0.6837606838
4.02794	0.5372405372
4.04194	0.5372405372
4.05594	0.3418803419
4.06994	0.6837606838
4.08394	0.6349206349
4.09794	0.5616605617
4.11194	0.4151404151
4.12594	0.4395604396
4.13994	0.3418803419
4.15394	0.6593406593
4.16794	0.3907203907
4.18194	0.3418803419
4.19594	0.2686202686
4.20994	0.2197802198
4.22394	0.463980464
4.23794	0.2197802198
4.25194	0.2442002442
4.26594	0.3907203907
4.27994	0.3174603175
4.29394	0.4151404151
4.30794	0.1709401709
4.32194	0.3663003663
4.33594	0.2686202686
4.34994	0.3663003663
4.36394	0.4151404151
4.37794	0.3174603175
4.39194	0.2442002442
4.40594	0.3418803419
4.41994	0.1465201465
4.43394	0.2197802198
4.44794	0.4884004884
4.46194	0.3174603175
4.47594	0.3174603175
4.48994	0.1953601954
4.50394	0.3418803419
4.51794	0.2197802198
4.53194	0.3418803419
4.54594	0.3907203907
4.55994	0.5372405372
4.57394	0.3174603175
4.58794	0.3174603175
4.60194	0.4151404151
4.61594	0.3174603175
4.62994	0.3174603175
4.64394	0.3418803419
4.65794	0.3174603175
4.67194	0.3663003663
4.68594	0.2197802198
4.69994	0.3174603175
4.71394	0.3663003663
4.72794	0.293040293
4.74194	0.4395604396
4.75594	0.3418803419
4.76994	0.3663003663
4.78394	0.1953601954
4.79794	0.4884004884
4.81194	0.463980464
4.82594	0.3418803419
4.83994	0.5372405372
4.85394	0.5128205128
4.86794	0.4884004884
4.88194	0.2442002442
4.89594	0.5616605617
4.90994	0.6105006105
4.92394	0.5372405372
4.93794	0.4395604396
4.95194	0.5128205128
4.96594	0.3174603175
4.97994	0.4884004884
4.99394	0.4151404151
5.00794	0.3907203907
5.02194	0.3663003663
5.03594	0.293040293
5.04994	0.5616605617
5.06394	0.4151404151
5.07794	0.757020757
5.09194	0.6593406593
5.10594	0.463980464
5.11994	0.5860805861
5.13394	0.4884004884
5.14794	0.5860805861
5.16194	0.5372405372
5.17594	0.4884004884
5.18994	0.6105006105
5.20394	0.7081807082
5.21794	0.6105006105
5.23194	0.7081807082
5.24594	0.8058608059
5.25994	0.7326007326
5.27394	0.6105006105
5.28794	0.8302808303
5.30194	0.6349206349
5.31594	0.6837606838
5.32994	0.757020757
5.34394	0.6593406593
5.35794	0.757020757
5.37194	0.6105006105
5.38594	0.6593406593
5.39994	0.7081807082
5.41394	0.5860805861
5.42794	0.4151404151
5.44194	0.5372405372
5.45594	0.8058608059
5.46994	0.7326007326
5.48394	0.7814407814
5.49794	0.6837606838
5.51194	0.7081807082
5.52594	0.6593406593
5.53994	0.8058608059
5.55394	0.8791208791
5.56794	0.5616605617
5.58194	0.6349206349
5.59594	0.757020757
5.60994	0.6105006105
5.62394	0.7326007326
5.63794	0.7081807082
5.65194	0.8547008547
5.66594	0.8302808303
5.67994	0.4884004884
5.69394	0.757020757
5.70794	0.6105006105
5.72194	0.7326007326
5.73594	0.6105006105
5.74994	0.8302808303
5.76394	0.7081807082
5.77794	0.6593406593
5.79194	0.8547008547
5.80594	0.7814407814
5.81994	0.7081807082
5.83394	0.7081807082
5.84794	0.8302808303
5.86194	0.5616605617
5.87594	0.6105006105
5.88994	0.8547008547
5.90394	0.6593406593
5.91794	0.7081807082
5.93194	0.7081807082
5.94594	0.757020757
5.95994	0.6837606838
5.97394	0.8058608059
5.98794	0.6349206349
6.00194	0.7081807082
6.01594	0.6837606838
6.02994	1.001221001
6.04394	0.8302808303
6.05794	0.6837606838
6.07194	0.8302808303
6.08594	0.8058608059
6.09994	0.8302808303
6.11394	0.8058608059
6.12794	0.8547008547
6.14194	0.757020757
6.15594	0.7081807082
6.16994	0.8547008547
6.18394	0.8058608059
6.19794	0.8302808303
6.21194	0.5616605617
6.22594	0.8302808303
6.23994	0.5372405372
6.25394	0.7081807082
6.26794	0.9035409035
6.28194	0.6349206349
6.29594	0.4884004884
6.30994	0.8547008547
6.32394	0.7814407814
6.33794	0.6105006105
6.35194	0.5372405372
6.36594	0.7326007326
6.37994	0.7326007326
6.39394	0.6349206349
6.40794	0.5616605617
6.42194	0.6837606838
6.43594	0.6105006105
6.44994	0.6349206349
6.46394	0.757020757
6.47794	0.5616605617
6.49194	0.6105006105
6.50594	0.8058608059
6.51994	0.7081807082
6.53394	0.6349206349
6.54794	0.5860805861
6.56194	0.5372405372
6.57594	0.5616605617
6.58994	0.6105006105
6.60394	0.6105006105
6.61794	0.6349206349
6.63194	0.5860805861
6.64594	0.6349206349
6.65994	0.6105006105
6.67394	0.8058608059
6.68794	0.5860805861
6.70194	0.5372405372
6.71594	0.5372405372
6.72994	0.6349206349
6.74394	0.6349206349
6.75794	0.7326007326
6.77194	0.5616605617
6.78594	0.7814407814
6.79994	0.6837606838
6.81394	0.7814407814
6.82794	0.7814407814
6.84194	0.5860805861
6.85594	0.6349206349
6.86994	0.6105006105
6.88394	0.5616605617
6.89794	0.6105006105
6.91194	0.5128205128
6.92594	0.6349206349
6.93994	0.6837606838
6.95394	0.463980464
6.96794	0.6837606838
6.98194	0.6105006105
6.99594	0.5860805861
7.00994	0.5616605617
7.02394	0.7326007326
