Bruker BioSpin GmbH: the minispec
DataType=5
DataLimits=0.03794,7.02394,500
DataUnit=Time/ms,Intensity/%
c:\nmr relaxation\applications\fid.app
07.02.2019 19:18:09

0.03794	95.31135531
0.05194	94.7008547
0.06594	94.45665446
0.07994	94.06593407
0.09394	93.74847375
0.10794	93.06471306
0.12194	92.57631258
0.13594	91.84371184
0.14994	91.33089133
0.16394	90.6959707
0.17794	89.86568987
0.19194	89.27960928
0.20594	88.37606838
0.21994	87.27716728
0.23394	86.37362637
0.24794	85.32356532
0.26194	84.46886447
0.27594	83.22344322
0.28994	82.02686203
0.30394	80.83028083
0.31794	79.82905983
0.33194	78.51037851
0.34594	77.58241758
0.35994	76.06837607
0.37394	74.94505495
0.38794	73.6019536
0.40194	72.18559219
0.41594	70.84249084
0.42994	69.69474969
0.44394	68.4004884
0.45794	66.88644689
0.47194	65.73870574
0.48594	64.56654457
0.49994	63.003663
0.51394	62.02686203
0.52794	60.65934066
0.54194	59.26739927
0.55594	57.997558
0.56994	56.94749695
0.58394	55.53113553
0.59794	54.38339438
0.61194	53.16239316
0.62594	52.03907204
0.63994	50.94017094
0.65394	49.76800977
0.66794	48.74236874
0.68194	47.59462759
0.69594	46.71550672
0.70994	45.51892552
0.72394	44.54212454
0.73794	43.39438339
0.75194	42.46642247
0.76594	41.80708181
0.77994	40.75702076
0.79394	40.07326007
0.80794	39.02319902
0.82194	38.24175824
0.83594	37.26495726
0.84994	36.67887668
0.86394	35.72649573
0.87794	34.96947497
0.89194	34.31013431
0.90594	33.77289377
0.91994	32.84493284
0.93394	31.96581197
0.94794	31.15995116
0.96194	30.74481074
0.97594	29.86568987
0.98994	29.27960928
1.00394	28.57142857
1.01794	27.69230769
1.03194	26.98412698
1.04594	26.54456654
1.05994	25.90964591
1.07394	25.22588523
1.08794	24.42002442
1.10194	23.93162393
1.11594	23.24786325
1.12994	22.56410256
1.14394	21.97802198
1.15794	21.22100122
1.17194	20.61050061
1.18594	20.04884005
1.19994	19.51159951
1.21394	19.02319902
1.22794	18.33943834
1.24194	18.02197802
1.25594	17.24053724
1.26994	16.63003663
1.28394	15.995116
1.29794	15.40903541
1.31194	14.7985348
1.32594	14.50549451
1.33994	13.77289377
1.35394	13.38217338
1.36794	12.94261294
1.38194	12.33211233
1.39594	11.91697192
1.40994	11.42857143
1.42394	10.91575092
1.43794	10.47619048
1.45194	9.914529915
1.46594	9.865689866
1.47994	9.304029304
1.49394	8.913308913
1.50794	8.84004884
1.52194	8.253968254
1.53594	7.960927961
1.54994	7.765567766
1.56394	7.472527473
1.57794	7.326007326
1.59194	6.862026862
1.60594	6.568986569
1.61994	6.324786325
1.63394	6.007326007
1.64794	5.885225885
1.66194	5.811965812
1.67594	5.518925519
1.68994	5.25030525
1.70394	5.201465201
1.71794	4.981684982
1.73194	4.713064713
1.74594	4.810744811
1.75994	4.517704518
1.77394	4.63980464
1.78794	4.322344322
1.80194	4.371184371
1.81594	4.249084249
1.82994	4.224664225
1.84394	4.053724054
1.85794	3.785103785
1.87194	3.80952381
1.88594	3.58974359
1.89994	3.760683761
1.91394	3.418803419
1.92794	3.394383394
1.94194	3.199023199
1.95594	3.296703297
1.96994	3.199023199
1.98394	3.15018315
1.99794	3.199023199
2.01194	2.881562882
2.02594	2.661782662
2.03994	2.612942613
2.05394	2.515262515
2.06794	2.417582418
2.08194	2.442002442
2.09594	2.271062271
2.10994	2.271062271
2.12394	2.222222222
2.13794	2.075702076
2.15194	2.222222222
2.16594	1.855921856
2.17994	2.026862027
2.19394	1.831501832
2.20794	1.660561661
2.22194	1.758241758
2.23594	1.611721612
2.24994	1.440781441
2.26394	1.416361416
2.27794	1.416361416
2.29194	1.147741148
2.30594	1.172161172
2.31994	1.074481074
2.33394	1.025641026
2.34794	1.05006105
2.36194	0.8302808303
2.37594	0.7814407814
2.38994	0.7326007326
2.40394	0.8302808303
2.41794	0.7081807082
2.43194	0.5616605617
2.44594	0.6349206349
2.45994	0.5128205128
2.47394	0.4151404151
2.48794	0.3663003663
2.50194	0.4151404151
2.51594	0.2442002442
2.52994	0.1709401709
2.54394	0.1709401709
2.55794	0.04884004884
2.57194	0.1465201465
2.58594	0.1465201465
2.59994	0.3174603175
2.61394	0.1953601954
2.62794	0.1953601954
2.64194	0.4151404151
2.65594	0.4395604396
2.66994	0.5128205128
2.68394	0.5616605617
2.69794	0.4884004884
2.71194	0.6593406593
2.72594	0.6837606838
2.73994	0.6105006105
2.75394	0.9035409035
2.76794	0.9035409035
2.78194	0.8302808303
2.79594	0.8791208791
2.80994	0.9768009768
2.82394	1.05006105
2.83794	1.196581197
2.85194	1.294261294
2.86594	1.074481074
2.87994	1.440781441
2.89394	1.416361416
2.90794	1.343101343
2.92194	1.391941392
2.93594	1.318681319
2.94994	1.48962149
2.96394	1.514041514
2.97794	1.48962149
2.99194	1.391941392
3.00594	1.538461538
3.01994	1.611721612
3.03394	1.855921856
3.04794	1.660561661
3.06194	1.709401709
3.07594	1.758241758
3.08994	1.611721612
3.10394	1.538461538
3.11794	1.611721612
3.13194	1.855921856
3.14594	1.709401709
3.15994	1.733821734
3.17394	1.660561661
3.18794	1.782661783
3.20194	1.831501832
3.21594	1.929181929
3.22994	1.587301587
3.24394	1.953601954
3.25794	1.587301587
3.27194	1.831501832
3.28594	1.733821734
3.29994	1.758241758
3.31394	1.660561661
3.32794	1.807081807
3.34194	1.758241758
3.35594	1.709401709
3.36994	1.611721612
3.38394	1.636141636
3.39794	1.709401709
3.41194	1.587301587
3.42594	1.611721612
3.43994	1.562881563
3.45394	1.465201465
3.46794	1.636141636
3.48194	1.48962149
3.49594	1.343101343
3.50994	1.343101343
3.52394	1.440781441
3.53794	1.294261294
3.55194	1.343101343
3.56594	1.318681319
3.57994	1.343101343
3.59394	1.26984127
3.60794	1.343101343
3.62194	1.391941392
3.63594	1.318681319
3.64994	1.221001221
3.66394	1.343101343
3.67794	1.172161172
3.69194	1.318681319
3.70594	1.074481074
3.71994	1.48962149
3.73394	1.172161172
3.74794	1.245421245
3.76194	1.245421245
3.77594	1.172161172
3.78994	1.098901099
3.80394	1.001221001
3.81794	1.025641026
3.83194	1.05006105
3.84594	1.025641026
3.85994	0.8791208791
3.87394	0.9035409035
3.88794	0.9523809524
3.90194	1.025641026
3.91594	1.196581197
3.92994	0.927960928
3.94394	1.147741148
3.95794	0.7081807082
3.97194	0.8547008547
3.98594	0.7081807082
3.99994	0.8547008547
4.01394	0.7081807082
4.02794	0.8302808303
4.04194	0.4884004884
4.05594	0.7814407814
4.06994	0.6593406593
4.08394	0.6837606838
4.09794	0.6837606838
4.11194	0.757020757
4.12594	0.5860805861
4.13994	0.4884004884
4.15394	0.5128205128
4.16794	0.6349206349
4.18194	0.5128205128
4.19594	0.5372405372
4.20994	0.5128205128
4.22394	0.6593406593
4.23794	0.5372405372
4.25194	0.7814407814
4.26594	0.5128205128
4.27994	0.4884004884
4.29394	0.4151404151
4.30794	0.3907203907
4.32194	0.4884004884
4.33594	0.3663003663
4.34994	0.5616605617
4.36394	0.463980464
4.37794	0.4151404151
4.39194	0.463980464
4.40594	0.463980464
4.41994	0.3907203907
4.43394	0.4395604396
4.44794	0.3418803419
4.46194	0.3174603175
4.47594	0.293040293
4.48994	0.3907203907
4.50394	0.463980464
4.51794	0.3907203907
4.53194	0.1221001221
4.54594	0.1465201465
4.55994	0.293040293
4.57394	0.3174603175
4.58794	0.4395604396
4.60194	0.293040293
4.61594	0.1953601954
4.62994	0.2442002442
4.64394	0.09768009768
4.65794	0.2197802198
4.67194	0.2197802198
4.68594	0.3663003663
4.69994	0.1221001221
4.71394	0.293040293
4.72794	0.3174603175
4.74194	0.2197802198
4.75594	0.1709401709
4.76994	0.3418803419
4.78394	0.3174603175
4.79794	0.1953601954
4.81194	0.293040293
4.82594	0.2442002442
4.83994	0.1465201465
4.85394	0.3174603175
4.86794	0.463980464
4.88194	0.2442002442
4.89594	0.293040293
4.90994	0.3174603175
4.92394	0.4395604396
4.93794	0.3418803419
4.95194	0.293040293
4.96594	0.4395604396
4.97994	0.3663003663
4.99394	0.3907203907
5.00794	0.5372405372
5.02194	0.4151404151
5.03594	0.3418803419
5.04994	0.463980464
5.06394	0.2442002442
5.07794	0.463980464
5.09194	0.463980464
5.10594	0.3174603175
5.11994	0.4395604396
5.13394	0.6593406593
5.14794	0.7081807082
5.16194	0.463980464
5.17594	0.4151404151
5.18994	0.3663003663
5.20394	0.6837606838
5.21794	0.5372405372
5.23194	0.3907203907
5.24594	0.4884004884
5.25994	0.7081807082
5.27394	0.5128205128
5.28794	0.6105006105
5.30194	0.5860805861
5.31594	0.5372405372
5.32994	0.3907203907
5.34394	0.5860805861
5.35794	0.757020757
5.37194	0.5616605617
5.38594	0.6105006105
5.39994	0.6349206349
5.41394	0.6593406593
5.42794	0.5860805861
5.44194	0.6105006105
5.45594	0.6593406593
5.46994	0.5860805861
5.48394	0.6105006105
5.49794	0.757020757
5.51194	0.7814407814
5.52594	0.5616605617
5.53994	0.6837606838
5.55394	0.6837606838
5.56794	0.5860805861
5.58194	0.6349206349
5.59594	0.6349206349
5.60994	0.5372405372
5.62394	0.9035409035
5.63794	0.6837606838
5.65194	0.7081807082
5.66594	0.6349206349
5.67994	0.8058608059
5.69394	0.7814407814
5.70794	0.7326007326
5.72194	0.6593406593
5.73594	0.757020757
5.74994	0.8302808303
5.76394	0.7814407814
5.77794	0.6593406593
5.79194	0.8302808303
5.80594	0.5860805861
5.81994	0.8791208791
5.83394	0.7081807082
5.84794	0.9035409035
5.86194	0.8302808303
5.87594	0.757020757
5.88994	0.6837606838
5.90394	0.757020757
5.91794	0.9035409035
5.93194	0.7081807082
5.94594	0.5860805861
5.95994	0.8547008547
5.97394	0.6837606838
5.98794	0.6349206349
6.00194	0.7081807082
6.01594	0.8547008547
6.02994	0.6593406593
6.04394	0.8547008547
6.05794	0.8547008547
6.07194	0.757020757
6.08594	0.5860805861
6.09994	0.927960928
6.11394	0.6349206349
6.12794	0.7081807082
6.14194	0.757020757
6.15594	0.757020757
6.16994	0.9768009768
6.18394	0.6593406593
6.19794	0.927960928
6.21194	0.6837606838
6.22594	0.6837606838
6.23994	0.7081807082
6.25394	0.7326007326
6.26794	0.6349206349
6.28194	0.6837606838
6.29594	0.927960928
6.30994	0.9035409035
6.32394	0.7326007326
6.33794	0.9035409035
6.35194	1.123321123
6.36594	0.7081807082
6.37994	0.7814407814
6.39394	0.6593406593
6.40794	0.8547008547
6.42194	0.6349206349
6.43594	1.074481074
6.44994	0.6837606838
6.46394	0.5616605617
6.47794	0.5616605617
6.49194	0.927960928
6.50594	0.7814407814
6.51994	0.8791208791
6.53394	0.7814407814
6.54794	0.8791208791
6.56194	0.757020757
6.57594	0.7814407814
6.58994	0.757020757
6.60394	0.7081807082
6.61794	0.7326007326
6.63194	0.8547008547
6.64594	0.6349206349
6.65994	0.7081807082
6.67394	0.8302808303
6.68794	0.8302808303
6.70194	0.7081807082
6.71594	0.7081807082
6.72994	0.7081807082
6.74394	0.7326007326
6.75794	0.6593406593
6.77194	0.7326007326
6.78594	0.7326007326
6.79994	0.7081807082
6.81394	0.6593406593
6.82794	0.6105006105
6.84194	0.5128205128
6.85594	0.7326007326
6.86994	0.6837606838
6.88394	0.5860805861
6.89794	0.5128205128
6.91194	0.5372405372
6.92594	0.5616605617
6.93994	0.6105006105
6.95394	0.5860805861
6.96794	0.463980464
6.98194	0.4884004884
6.99594	0.7814407814
7.00994	0.757020757
7.02394	0.5372405372
