Bruker BioSpin GmbH: the minispec
DataType=5
DataLimits=0.03794,7.02394,500
DataUnit=Time/ms,Intensity/%
c:\nmr relaxation\applications\fid.app
07.02.2019 20:23:22

0.03794	97.04517705
0.05194	96.41025641
0.06594	96.06837607
0.07994	95.84859585
0.09394	95.16483516
0.10794	94.48107448
0.12194	94.23687424
0.13594	93.82173382
0.14994	92.96703297
0.16394	92.5030525
0.17794	91.55067155
0.19194	90.84249084
0.20594	89.89010989
0.21994	88.91330891
0.23394	87.86324786
0.24794	86.88644689
0.26194	85.86080586
0.27594	85.00610501
0.28994	83.90720391
0.30394	82.63736264
0.31794	81.48962149
0.33194	80.24420024
0.34594	78.97435897
0.35994	77.72893773
0.37394	76.55677656
0.38794	75.04273504
0.40194	73.96825397
0.41594	72.45421245
0.42994	71.15995116
0.44394	69.79242979
0.45794	68.5958486
0.47194	67.17948718
0.48594	65.64102564
0.49994	64.56654457
0.51394	62.97924298
0.52794	61.80708181
0.54194	60.43956044
0.55594	59.26739927
0.56994	57.92429792
0.58394	56.82539683
0.59794	55.50671551
0.61194	54.11477411
0.62594	52.89377289
0.63994	51.89255189
0.65394	50.74481074
0.66794	49.62148962
0.68194	48.44932845
0.69594	47.42368742
0.70994	46.42246642
0.72394	45.32356532
0.73794	44.34676435
0.75194	43.2967033
0.76594	42.39316239
0.77994	41.29426129
0.79394	40.43956044
0.80794	39.56043956
0.82194	38.73015873
0.83594	37.75335775
0.84994	36.92307692
0.86394	36.09279609
0.87794	35.43345543
0.89194	34.45665446
0.90594	33.65079365
0.91994	33.01587302
0.93394	32.11233211
0.94794	31.55067155
0.96194	30.81807082
0.97594	30.06105006
0.98994	29.5970696
1.00394	28.88888889
1.01794	27.93650794
1.03194	27.3992674
1.04594	26.56898657
1.05994	26.03174603
1.07394	25.34798535
1.08794	24.59096459
1.10194	24.17582418
1.11594	23.34554335
1.12994	22.73504274
1.14394	22.17338217
1.15794	21.70940171
1.17194	20.85470085
1.18594	20.36630037
1.19994	19.75579976
1.21394	19.21855922
1.22794	18.65689866
1.24194	17.94871795
1.25594	17.58241758
1.26994	16.72771673
1.28394	16.21489621
1.29794	15.62881563
1.31194	15.23809524
1.32594	14.40781441
1.33994	14.18803419
1.35394	13.43101343
1.36794	13.01587302
1.38194	12.47863248
1.39594	12.18559219
1.40994	11.62393162
1.42394	11.20879121
1.43794	10.84249084
1.45194	10.4029304
1.46594	9.914529915
1.47994	9.426129426
1.49394	9.108669109
1.50794	8.791208791
1.52194	8.449328449
1.53594	8.180708181
1.54994	7.716727717
1.56394	7.619047619
1.57794	7.228327228
1.59194	7.106227106
1.60594	6.544566545
1.61994	6.446886447
1.63394	6.52014652
1.64794	6.227106227
1.66194	5.860805861
1.67594	5.738705739
1.68994	5.567765568
1.70394	5.372405372
1.71794	5.299145299
1.73194	5.25030525
1.74594	4.981684982
1.75994	4.85958486
1.77394	4.908424908
1.78794	4.517704518
1.80194	4.517704518
1.81594	4.517704518
1.82994	4.175824176
1.84394	4.126984127
1.85794	4.102564103
1.87194	4.078144078
1.88594	3.882783883
1.89994	3.760683761
1.91394	3.711843712
1.92794	3.736263736
1.94194	3.418803419
1.95594	3.394383394
1.96994	3.443223443
1.98394	3.076923077
1.99794	3.003663004
2.01194	3.003663004
2.02594	2.881562882
2.03994	2.881562882
2.05394	2.735042735
2.06794	2.588522589
2.08194	2.442002442
2.09594	2.222222222
2.10994	2.31990232
2.12394	2.075702076
2.13794	2.173382173
2.15194	2.124542125
2.16594	1.929181929
2.17994	1.904761905
2.19394	1.709401709
2.20794	1.636141636
2.22194	1.562881563
2.23594	1.465201465
2.24994	1.318681319
2.26394	1.391941392
2.27794	1.294261294
2.29194	1.147741148
2.30594	1.05006105
2.31994	0.9523809524
2.33394	0.9523809524
2.34794	1.196581197
2.36194	0.4884004884
2.37594	0.8058608059
2.38994	0.6837606838
2.40394	0.6105006105
2.41794	0.4151404151
2.43194	0.4395604396
2.44594	0.5128205128
2.45994	0.2197802198
2.47394	0.463980464
2.48794	0.1465201465
2.50194	0.2442002442
2.51594	0.1465201465
2.52994	0.09768009768
2.54394	0.2442002442
2.55794	0.07326007326
2.57194	0.2442002442
2.58594	0.09768009768
2.59994	0.3418803419
2.61394	0.1709401709
2.62794	0.2442002442
2.64194	0.463980464
2.65594	0.5616605617
2.66994	0.463980464
2.68394	0.6349206349
2.69794	0.6105006105
2.71194	0.6593406593
2.72594	0.8791208791
2.73994	0.757020757
2.75394	0.8302808303
2.76794	0.8547008547
2.78194	0.8791208791
2.79594	1.074481074
2.80994	0.9768009768
2.82394	1.172161172
2.83794	1.123321123
2.85194	1.318681319
2.86594	1.098901099
2.87994	1.26984127
2.89394	1.343101343
2.90794	1.318681319
2.92194	1.416361416
2.93594	1.440781441
2.94994	1.465201465
2.96394	1.514041514
2.97794	1.587301587
2.99194	1.636141636
3.00594	1.440781441
3.01994	1.758241758
3.03394	1.514041514
3.04794	1.562881563
3.06194	1.807081807
3.07594	1.587301587
3.08994	1.831501832
3.10394	1.831501832
3.11794	1.733821734
3.13194	1.733821734
3.14594	1.758241758
3.15994	1.733821734
3.17394	1.758241758
3.18794	1.709401709
3.20194	1.611721612
3.21594	1.831501832
3.22994	1.684981685
3.24394	1.807081807
3.25794	1.733821734
3.27194	1.636141636
3.28594	1.611721612
3.29994	1.782661783
3.31394	1.367521368
3.32794	1.562881563
3.34194	1.611721612
3.35594	1.684981685
3.36994	1.465201465
3.38394	1.636141636
3.39794	1.416361416
3.41194	1.562881563
3.42594	1.465201465
3.43994	1.538461538
3.45394	1.465201465
3.46794	1.465201465
3.48194	1.440781441
3.49594	1.538461538
3.50994	1.294261294
3.52394	1.318681319
3.53794	1.538461538
3.55194	1.196581197
3.56594	1.26984127
3.57994	1.465201465
3.59394	1.245421245
3.60794	1.343101343
3.62194	1.221001221
3.63594	1.196581197
3.64994	1.367521368
3.66394	1.221001221
3.67794	1.367521368
3.69194	1.221001221
3.70594	1.172161172
3.71994	1.221001221
3.73394	1.245421245
3.74794	1.05006105
3.76194	1.123321123
3.77594	1.025641026
3.78994	0.9035409035
3.80394	0.9523809524
3.81794	1.147741148
3.83194	1.001221001
3.84594	1.123321123
3.85994	0.7814407814
3.87394	0.8791208791
3.88794	1.025641026
3.90194	0.8547008547
3.91594	0.9768009768
3.92994	1.05006105
3.94394	1.147741148
3.95794	0.7326007326
3.97194	1.001221001
3.98594	0.9523809524
3.99994	0.8791208791
4.01394	0.8547008547
4.02794	0.7814407814
4.04194	0.927960928
4.05594	0.7326007326
4.06994	0.9035409035
4.08394	0.6593406593
4.09794	0.8302808303
4.11194	0.7326007326
4.12594	0.6593406593
4.13994	0.6105006105
4.15394	0.5616605617
4.16794	0.5616605617
4.18194	0.4151404151
4.19594	0.6105006105
4.20994	0.5372405372
4.22394	0.3907203907
4.23794	0.4395604396
4.25194	0.4395604396
4.26594	0.5860805861
4.27994	0.5372405372
4.29394	0.3663003663
4.30794	0.3418803419
4.32194	0.3663003663
4.33594	0.3418803419
4.34994	0.293040293
4.36394	0.3418803419
4.37794	0.2686202686
4.39194	0.463980464
4.40594	0.293040293
4.41994	0.2197802198
4.43394	0.293040293
4.44794	0.2197802198
4.46194	0.1221001221
4.47594	0.2197802198
4.48994	0.3418803419
4.50394	0.2686202686
4.51794	0.2686202686
4.53194	0.2442002442
4.54594	0.3907203907
4.55994	0.3418803419
4.57394	0.3418803419
4.58794	0.2686202686
4.60194	0.293040293
4.61594	0.2686202686
4.62994	0.3663003663
4.64394	0.1709401709
4.65794	0.3174603175
4.67194	0.293040293
4.68594	0.293040293
4.69994	0.1953601954
4.71394	0.2442002442
4.72794	0.1465201465
4.74194	0.4884004884
4.75594	0.4151404151
4.76994	0.3663003663
4.78394	0.3663003663
4.79794	0.3663003663
4.81194	0.2197802198
4.82594	0.3174603175
4.83994	0.1465201465
4.85394	0.3174603175
4.86794	0.3663003663
4.88194	0.4151404151
4.89594	0.5616605617
4.90994	0.2442002442
4.92394	0.3418803419
4.93794	0.463980464
4.95194	0.4395604396
4.96594	0.4151404151
4.97994	0.5372405372
4.99394	0.4151404151
5.00794	0.3418803419
5.02194	0.4151404151
5.03594	0.5128205128
5.04994	0.5372405372
5.06394	0.5128205128
5.07794	0.6349206349
5.09194	0.7081807082
5.10594	0.6349206349
5.11994	0.6349206349
5.13394	0.5616605617
5.14794	0.3174603175
5.16194	0.6593406593
5.17594	0.757020757
5.18994	0.7081807082
5.20394	0.4884004884
5.21794	0.5860805861
5.23194	0.5616605617
5.24594	0.5128205128
5.25994	0.6593406593
5.27394	0.5128205128
5.28794	0.7081807082
5.30194	0.6105006105
5.31594	0.6593406593
5.32994	0.6593406593
5.34394	0.7081807082
5.35794	0.9523809524
5.37194	0.757020757
5.38594	0.6349206349
5.39994	0.6837606838
5.41394	0.5860805861
5.42794	0.4884004884
5.44194	0.7814407814
5.45594	0.7326007326
5.46994	0.6593406593
5.48394	0.7081807082
5.49794	0.5860805861
5.51194	0.4884004884
5.52594	0.5128205128
5.53994	0.757020757
5.55394	0.6593406593
5.56794	0.6105006105
5.58194	0.4884004884
5.59594	0.5860805861
5.60994	0.7326007326
5.62394	0.7814407814
5.63794	0.5616605617
5.65194	0.6349206349
5.66594	0.7814407814
5.67994	0.7081807082
5.69394	0.8791208791
5.70794	0.6837606838
5.72194	0.6837606838
5.73594	0.7081807082
5.74994	0.6105006105
5.76394	0.757020757
5.77794	1.025641026
5.79194	0.8791208791
5.80594	0.6593406593
5.81994	0.8058608059
5.83394	0.6593406593
5.84794	0.757020757
5.86194	0.6837606838
5.87594	0.5616605617
5.88994	0.7814407814
5.90394	0.8791208791
5.91794	0.8791208791
5.93194	0.7814407814
5.94594	0.8058608059
5.95994	0.7814407814
5.97394	0.757020757
5.98794	0.8058608059
6.00194	0.8058608059
6.01594	0.757020757
6.02994	0.9035409035
6.04394	0.9035409035
6.05794	0.5860805861
6.07194	0.8791208791
6.08594	0.8547008547
6.09994	0.8058608059
6.11394	0.7814407814
6.12794	0.927960928
6.14194	0.7081807082
6.15594	0.8058608059
6.16994	0.9035409035
6.18394	0.7081807082
6.19794	0.5860805861
6.21194	0.927960928
6.22594	0.6593406593
6.23994	0.8302808303
6.25394	0.8547008547
6.26794	0.7326007326
6.28194	0.9035409035
6.29594	0.757020757
6.30994	0.8791208791
6.32394	0.5128205128
6.33794	0.8302808303
6.35194	0.8791208791
6.36594	0.8302808303
6.37994	0.7814407814
6.39394	0.8791208791
6.40794	0.757020757
6.42194	0.7814407814
6.43594	0.9035409035
6.44994	0.9035409035
6.46394	0.7326007326
6.47794	0.8302808303
6.49194	0.8791208791
6.50594	0.9523809524
6.51994	0.6349206349
6.53394	0.8058608059
6.54794	1.001221001
6.56194	0.8547008547
6.57594	0.757020757
6.58994	0.8547008547
6.60394	0.6349206349
6.61794	0.757020757
6.63194	0.8791208791
6.64594	0.6593406593
6.65994	0.7326007326
6.67394	0.6593406593
6.68794	0.6105006105
6.70194	0.8058608059
6.71594	0.8058608059
6.72994	1.001221001
6.74394	0.6837606838
6.75794	0.757020757
6.77194	0.9035409035
6.78594	0.757020757
6.79994	0.6837606838
6.81394	0.7814407814
6.82794	0.7081807082
6.84194	0.6593406593
6.85594	0.6837606838
6.86994	0.7081807082
6.88394	0.5616605617
6.89794	0.6349206349
6.91194	0.7081807082
6.92594	0.5860805861
6.93994	0.5860805861
6.95394	0.6105006105
6.96794	0.7081807082
6.98194	0.7081807082
6.99594	0.5372405372
7.00994	0.6837606838
7.02394	0.5860805861
